t [s];P [Pa];Q [m^3/s];A [m^2]
0;8448.55675445759;-2.43748716967954E-07;0.000583801632343
0.000312012480499;8445.00284407395;-2.50645196532568E-07;0.000583730124949
0.000624024960998;8441.45494397254;-2.57532189316761E-07;0.000583658712835
0.000936037441498;8437.9130422758;-2.64409816092137E-07;0.000583587395873
0.001248049921997;8434.37712751659;-2.71278204262266E-07;0.000583516173942
0.001560062402496;8430.84718864703;-2.78137491660024E-07;0.000583445046929
0.001872074882995;8427.3232150409;-2.84987830499552E-07;0.000583374014729
0.002184087363495;8423.80601302632;-2.91743205493342E-07;0.000583303093715
0.002496099843994;8420.29873715458;-2.98069672669158E-07;0.000583232347655
0.002808112324493;8416.80852676334;-3.03212305737788E-07;0.00058316192083
0.003120124804992;8413.34753132157;-3.05886583621109E-07;0.000583092058872
0.003432137285491;8409.93280389395;-3.04289370649394E-07;0.000583023106791
0.003744149765991;8406.58490017035;-2.96246840518168E-07;0.000582955480826
0.00405616224649;8403.32539922628;-2.79476634881316E-07;0.000582889618444
0.004368174726989;8400.17385049682;-2.51910979213147E-07;0.000582825916618
0.004680187207488;8397.14478621691;-2.12013115286834E-07;0.000582764671308
0.004992199687988;8394.24540730819;-1.5902261877804E-07;0.000582706030453
0.005304212168487;8391.47438280822;-9.30828776140638E-08;0.000582649969432
0.005616224648986;8388.82195422001;-1.52303259404358E-08;0.000582596292928
0.005928237129485;8386.27127115894;7.2746884646745E-08;0.000582544661744
0.006240249609984;8383.8006611777;1.68549390622089E-07;0.000582494638616
0.006552262090484;8381.38639477105;2.69659873528215E-07;0.000582445744125
0.006864274570983;8379.00546359313;3.73638119781201E-07;0.000582397512964
0.007176287051482;8376.6379407294;4.78372378903792E-07;0.000582349541809
0.007488299531981;8374.26861370902;5.8225448968513E-07;0.000582301522501
0.007800312012481;8371.88774090768;6.8426321730214E-07;0.000582253257502
0.00811232449298;8369.49094514972;7.83957472585574E-07;0.000582204657868
0.008424336973479;8367.07839483377;8.81395374337615E-07;0.000582155726772
0.008736349453978;8364.65351285809;9.77004350188177E-07;0.000582106533421
0.009048361934477;8362.22148900174;1.07143083173853E-06;0.000582057182945
0.009360374414977;8359.78785544854;1.16539599401389E-06;0.000582007787532
0.009672386895476;8357.35732957189;1.25957775981803E-06;0.000581958442933
0.009984399375975;8354.93339010221;1.35456683770966E-06;0.000581909219842
0.010296411856474;8352.51921343456;1.45096171302142E-06;0.000581860182879
0.010608424336974;8350.11961556644;1.54956416602657E-06;0.000581811430042
0.010920436817473;8347.74315126855;1.65158526394564E-06;0.000581763135416
0.011232449297972;8345.40347945494;1.75876811519453E-06;0.000581715577015
0.011544461778471;8343.11938612921;1.87336455337754E-06;0.000581669137367
0.01185647425897;8340.91329800548;1.99795062027104E-06;0.000581624273392
0.01216848673947;8338.80856156367;2.13511316588923E-06;0.0005815814611
0.012480499219969;8336.82608406508;2.2870742117257E-06;0.000581541127227
0.012792511700468;8334.9810713567;2.45533408265915E-06;0.000581503582739
0.013104524180967;8333.28054560126;2.64040798890152E-06;0.000581468972155
0.013416536661467;8331.72212341786;2.84170795472188E-06;0.000581437248489
0.013728549141966;8330.29424755818;3.05758996112009E-06;0.00058140817781
0.014040561622465;8328.9777668157;3.28555297088947E-06;0.000581381371296
0.014352574102964;8327.74851338321;3.52254921113329E-06;0.000581356337659
0.014664586583463;8326.58037719739;3.76534848327503E-06;0.000581332545744
0.014976599063963;8325.44833962512;4.01089525673801E-06;0.000581309486345
0.015288611544462;8324.33099579653;4.25660499322541E-06;0.000581286723628
0.015600624024961;8323.2122384663;4.50056249650426E-06;0.0005812639295
0.01591263650546;8322.0819584761;4.74160582834609E-06;0.000581240897947
0.01622464898596;8320.93579840969;4.97930003071263E-06;0.000581217540079
0.016536661466459;8319.77414415904;5.21382180810167E-06;0.000581193863646
0.016848673946958;8318.60063285261;5.44578701720906E-06;0.000581169942681
0.017160686427457;8317.42048753282;5.6760563955622E-06;0.00058114588358
0.017472698907956;8316.23896419438;5.90555199745778E-06;0.000581121793465
0.017784711388456;8315.06012957482;6.13510894767734E-06;0.000581097755258
0.018096723868955;8313.88723998528;6.36549767429137E-06;0.000581073835389
0.018408736349454;8312.7251185065;6.59765858537508E-06;0.000581050132282
0.018720748829953;8311.58359800376;6.83304968171556E-06;0.000581026846605
0.019032761310453;8310.48056382998;7.07395083019961E-06;0.00058100434341
0.019344773790952;8309.44327645203;7.3235842253667E-06;0.000580983179199
0.019656786271451;8308.50724328391;7.5859737507837E-06;0.000580964078983
0.01996879875195;8307.71266458026;7.86554704747803E-06;0.000580947863772
0.020280811232449;8307.09915512188;8.16655684014696E-06;0.000580935342791
0.020592823712949;8306.69987365812;8.49244437530015E-06;0.000580927193518
0.020904836193448;8306.53630360026;8.84527980501109E-06;0.000580923854982
0.021216848673947;8306.6147388482;9.22539372414625E-06;0.000580925455887
0.021528861154446;8306.92512139673;9.63126971105578E-06;0.000580931790831
0.021840873634945;8307.44237017298;1.00597123111138E-05;0.00058094234749
0.022152886115445;8308.12985366856;1.05062515368401E-05;0.000580956377643
0.022464898595944;8308.9442898901;1.0965704369796E-05;0.000580972997362
0.022776911076443;8309.84116493239;1.14327925116297E-05;0.000580991297752
0.023088923556942;8310.77976104045;1.19027154979526E-05;0.000581010447637
0.023400936037442;8311.72705132201;1.23715965880703E-05;0.000581029773035
0.023712948517941;8312.65999741945;1.28367496856106E-05;0.000581048803962
0.02402496099844;8313.56611081879;1.32967514733901E-05;0.00058106728579
0.024336973478939;8314.44244211587;1.37513366406722E-05;0.000581085158521
0.024648985959438;8315.29339380107;1.42011597609121E-05;0.000581102512096
0.024960998439938;8316.12788115194;1.46474816668992E-05;0.00058111952844
0.025273010920437;8316.95638658692;1.50918403449044E-05;0.000581136421361
0.025585023400936;8317.78837989823;1.55357580499117E-05;0.000581153383952
0.025897035881435;8318.63056202672;1.59805338439971E-05;0.000581170552796
0.026209048361935;8319.48826168897;1.64273681023695E-05;0.000581188036457
0.026521060842434;8320.3696800652;1.68777858649904E-05;0.000581206002004
0.026833073322933;8321.29115471889;1.73341641670144E-05;0.000581224782263
0.027145085803432;8322.28121386314;1.78001265219676E-05;0.000581244958339
0.027457098283931;8323.38167754682;1.82806203069459E-05;0.000581267381906
0.027769110764431;8324.64505826494;1.87815999066426E-05;0.000581293122025
0.02808112324493;8326.12862369893;1.93093577375992E-05;0.000581323343929
0.028393135725429;8327.88638340634;1.98696418080884E-05;0.000581359145527
0.028705148205928;8329.96074955551;2.04667507282937E-05;0.000581401387381
0.029017160686428;8332.37563959378;2.11027984621283E-05;0.000581450552259
0.029329173166927;8335.13239751351;2.1777298017694E-05;0.000581506662369
0.029641185647426;8338.20925286204;2.24871410096244E-05;0.000581569268917
0.029953198127925;8341.56428976692;2.32269678113829E-05;0.0005816375133
0.030265210608424;8345.14122996631;2.39898492950021E-05;0.000581710245571
0.030577223088924;8348.87687069775;2.47681499775974E-05;0.000581786176383
0.030889235569423;8352.70882708066;2.55544212739499E-05;0.000581864034765
0.031201248049922;8356.58231242018;2.63421829562268E-05;0.000581942705938
0.031513260530421;8360.45499697209;2.71264851988123E-05;0.000582021329712
0.031825273010921;8364.29942799327;2.79041929961878E-05;0.000582099349115
0.03213728549142;8368.10296970864;2.86739879868518E-05;0.000582176508566
0.032449297971919;8371.86563831455;2.94361294142057E-05;0.000582252809383
0.032761310452418;8375.59649730487;3.01920485414881E-05;0.000582328436235
0.033073322932917;8379.30940996633;3.09438655920384E-05;0.000582403670739
0.033385335413417;8383.01892149394;3.16939154197569E-05;0.000582478807892
0.033697347893916;8386.73689354585;3.24443510674573E-05;0.00058255408792
0.034009360374415;8390.47144270146;3.31969907919874E-05;0.0005826296749
0.034321372854914;8394.22991460714;3.39535914015674E-05;0.000582705717061
0.034633385335414;8398.0247777406;3.47164284204677E-05;0.000582782465993
0.034945397815913;8401.87989055065;3.54889121370812E-05;0.000582860403108
0.035257410296412;8405.83449351604;3.62759587451217E-05;0.000582940319834
0.035569422776911;8409.94313825125;3.70839287022891E-05;0.000583023315504
0.03588143525741;8414.27109781512;3.79200876249375E-05;0.000583110703934
0.03619344773791;8418.88612799043;3.87916873767989E-05;0.000583203846482
0.036505460218409;8423.84840756514;3.9704867757089E-05;0.000583303948711
0.036817472698908;8429.20088566014;4.06636216732232E-05;0.000583411865808
0.037129485179407;8434.96208804484;4.166904668976E-05;0.000583527958231
0.037441497659906;8441.12280215647;4.27190360683219E-05;0.000583652026173
0.037753510140406;8447.64717432616;4.38084646521869E-05;0.000583783333342
0.038065522620905;8454.4778373808;4.49298237825018E-05;0.000583920711997
0.038377535101404;8461.54393912946;4.6074176629648E-05;0.000584062726045
0.038689547581903;8468.77049573501;4.72322558249713E-05;0.000584207860131
0.039001560062403;8476.08740183032;4.83955151766721E-05;0.000584354700967
0.039313572542902;8483.43666555043;4.95569738217207E-05;0.000584502082184
0.039625585023401;8490.77691288753;5.07117446538484E-05;0.000584649173725
0.0399375975039;8498.08479771724;5.18572054827084E-05;0.000584795508846
0.040249609984399;8505.35353219692;5.29928366719445E-05;0.000584940953373
0.040561622464899;8512.58920986892;5.4119800891113E-05;0.000585085630985
0.040873634945398;8519.80586402119;5.52403714436379E-05;0.000585229823579
0.041185647425897;8527.020267022;5.6357322988977E-05;0.0005853738669
0.041497659906396;8534.2473554087;5.74733848035998E-05;0.000585518059108
0.041809672386896;8541.49691365755;5.85908280214795E-05;0.000585662594818
0.042121684867395;8548.77432101453;5.97114839179989E-05;0.000585807580349
0.042433697347894;8556.08587796694;6.08372467822133E-05;0.000585953140039
0.042745709828393;8563.44648503624;6.19708246600553E-05;0.00058609956888
0.043057722308892;8570.88641698668;6.31163931235613E-05;0.000586247466496
0.043369734789392;8578.45436012482;6.42798537010039E-05;0.000586397796294
0.043681747269891;8586.21522940714;6.54685433132833E-05;0.000586551840696
0.04399375975039;8594.24294268205;6.66904186915953E-05;0.000586711056473
0.044305772230889;8602.60976548414;6.7952893114918E-05;0.000586876862662
0.044617784711389;8611.37469690613;6.92615939474801E-05;0.000587050410432
0.044929797191888;8620.57351101707;7.06193237658504E-05;0.000587232386862
0.045241809672387;8630.21256495222;7.20254520882029E-05;0.000587422894359
0.045553822152886;8640.26754079549;7.3475860889946E-05;0.000587621428446
0.045865834633385;8650.68717598851;7.49634446828876E-05;0.000587826954395
0.046177847113885;8661.40102277277;7.64790541660731E-05;0.000588038063057
0.046489859594384;8672.3295667067;7.80126941254763E-05;0.000588253172282
0.046801872074883;8683.39473937851;7.95547539370687E-05;0.000588470734806
0.047113884555382;8694.52899000556;8.1097063904159E-05;0.000588689416399
0.047425897035882;8705.68155373672;8.26336239054273E-05;0.00058890821776
0.047737909516381;8716.82123010476;8.41609268631896E-05;0.000589126527156
0.04804992199688;8727.93570056741;8.56778802724781E-05;0.000589344104957
0.048361934477379;8739.02802294895;8.71853980254365E-05;0.00058956101309
0.048673946957878;8750.11134098152;8.86857804126267E-05;0.000589777510121
0.048985959438378;8761.2029956883;9.01820173300267E-05;0.000589993935349
0.049297971918877;8772.31913584504;9.16771396650205E-05;0.000590210603379
0.049609984399376;8783.47065477434;9.31737129767883E-05;0.000590427725183
0.049921996879875;8794.66127054631;9.46735627236734E-05;0.000590645371338
0.050234009360375;8805.8908558685;9.61780551832762E-05;0.000590863537441
0.050546021840874;8817.16301309442;9.76888258401361E-05;0.000591082291441
0.050858034321373;8828.4936763137;9.92086153184031E-05;0.000591301939903
0.051170046801872;8839.91717498933;0.000100741838521;0.000591523144047
0.051482059282371;8851.48724481082;0.000102294625874;0.000591746937285
0.051794071762871;8863.27223767138;0.00010387426387;0.000591974630556
0.05210608424337;8875.34557808484;0.000105488152748;0.000592207626466
0.052418096723869;8887.773813296;0.000107142536395;0.000592447188228
0.052730109204368;8900.60513204411;0.000108841314023;0.000592694219179
0.053042121684867;8913.86096108947;0.000110585212289;0.000592949103124
0.053354134165367;8927.5323698612;0.000112371499594;0.000593211638388
0.053666146645866;8941.58181841203;0.000114194293054;0.000593481075099
0.053978159126365;8955.94959332188;0.000116045378051;0.000593756242214
0.054290171606864;8970.5633595553;0.000117915359958;0.000594035733269
0.054602184087364;8985.34878085187;0.000119794916045;0.000594318111039
0.054914196567863;9000.2391723028;0.000121675918081;0.000594602091994
0.055226209048362;9015.18257846311;0.000123552245248;0.000594886680088
0.055538221528861;9030.1453695253;0.000125420186267;0.000595171233152
0.05585023400936;9045.11223156121;0.000127278418547;0.000595455460232
0.05616224648986;9060.08312003738;0.000129127631039;0.000595739361376
0.056474258970359;9075.06822156716;0.000130969911843;0.000596023130244
0.056786271450858;9090.08216718063;0.000132808044338;0.000596307043384
0.057098283931357;9105.1386692938;0.000134644847288;0.000596591358449
0.057410296411857;9120.2464755543;0.00013648266181;0.000596876238078
0.057722308892356;9135.40713750786;0.000138323041933;0.000597161708573
0.058034321372855;9150.61608323633;0.000140166802217;0.00059744768102
0.058346333853354;9165.86814134461;0.000142014535909;0.000597734055752
0.058658346333853;9181.16551027985;0.000143867389509;0.000598020871742
0.058970358814353;9196.52490770549;0.000145727751251;0.000598308439377
0.059282371294852;9211.98101100286;0.000147599554211;0.000598597402786
0.059594383775351;9227.58471260144;0.000149488045901;0.000598888704862
0.05990639625585;9243.39645738086;0.000151399060738;0.000599183460901
0.06021840873635;9259.47639398628;0.000153337985481;0.000599482773983
0.060530421216849;9275.87387211399;0.000155308689886;0.000599787539765
0.060842433697348;9292.61883491608;0.000157312693089;0.000600098288165
0.061154446177847;9309.71700425205;0.00015934876294;0.000600415096825
0.061466458658346;9327.14970300821;0.000161413029306;0.000600737591276
0.061778471138846;9344.87802340984;0.000163499568005;0.00060106502552
0.062090483619345;9362.8501193059;0.000165601310725;0.000601396419547
0.062402496099844;9381.009864349;0.000167711079028;0.000601730720719
0.062714508580343;9399.30504400077;0.000169822534821;0.000602066954993
0.063026521060843;9417.69358642859;0.000171930879863;0.00060240434064
0.063338533541342;9436.14694803055;0.000174033207755;0.000602742348689
0.063650546021841;9454.6504757107;0.000176128493317;0.000603080707476
0.06396255850234;9473.2012002466;0.00017821727719;0.000603419360262
0.064274570982839;9491.80394915559;0.000180301153414;0.000603758392655
0.064586583463339;9510.46684541586;0.000182382187795;0.000604097949591
0.064898595943838;9529.1971889784;0.000184462385691;0.000604438160083
0.065210608424337;9547.99846162711;0.000186543296447;0.000604779083086
0.065522620904836;9566.86884069395;0.000188625798401;0.000605120681196
0.065834633385336;9585.80124458916;0.000190710064503;0.000605462822287
0.066146645865835;9604.78631342385;0.000192795843964;0.000605805334042
0.066458658346334;9623.81783398623;0.000194882999745;0.000606148101926
0.066770670826833;9642.89851684884;0.00019697208009;0.000606491172487
0.067082683307332;9662.04382098878;0.000199064685538;0.000606834820581
0.067394695787832;9681.28231376392;0.000201163479796;0.000607179553878
0.067706708268331;9700.65230604649;0.000203271825879;0.000607526050712
0.06801872074883;9720.19569188727;0.000205393153184;0.00060787504865
0.068330733229329;9739.95068186153;0.000207530238179;0.000608227214463
0.068642745709828;9759.94529431587;0.00020968459555;0.000608583028897
0.068954758190328;9780.19310525058;0.000211856133265;0.000608942712763
0.069266770670827;9800.69204249173;0.000214043144772;0.000609306207801
0.069578783151326;9821.42618945607;0.000216242621234;0.000609673211057
0.069890795631825;9842.36986675703;0.000218450791351;0.000610043249178
0.070202808112325;9863.49284175337;0.000220663752915;0.000610415771828
0.070514820592824;9884.76543434759;0.000222878054958;0.000610790242271
0.070826833073323;9906.16250545332;0.000225091117935;0.000611166207334
0.071138845553822;9927.66572896942;0.000227301429873;0.000611543336506
0.071450858034321;9949.26402636701;0.000229508513588;0.000611921428431
0.071762870514821;9970.95246194848;0.00023171270958;0.000612300390451
0.07207488299532;9992.73017094885;0.000233914850835;0.000612680201499
0.072386895475819;10014.5979873321;0.00023611591537;0.000613060870182
0.072698907956318;10036.5563676435;0.000238316731458;0.000613442398463
0.073010920436818;10058.6040210663;0.000240517785204;0.000613824757985
0.073322932917317;10080.7374192946;0.000242719148758;0.000614207881887
0.073634945397816;10102.9511355243;0.000244920518099;0.000614591671013
0.073946957878315;10125.2388564373;0.000247121334334;0.00061497601166
0.074258970358814;10147.595076785;0.000249320977904;0.00061536080486
0.074570982839314;10170.0169980449;0.000251518978223;0.000615745998835
0.074882995319813;10192.506019778;0.000253715172644;0.0006161316141
0.075195007800312;10215.0683592372;0.000255909769079;0.000616517753379
0.075507020280811;10237.7146307307;0.000258103301192;0.000616904593639
0.075819032761311;10260.4585261973;0.000260296498825;0.000617292362911
0.07613104524181;10283.3149609968;0.000262490118363;0.000617681308261
0.076443057722309;10306.2981350066;0.000264684783236;0.000618071662694
0.076755070202808;10329.4199115624;0.00026688087491;0.000618463617809
0.077067082683307;10352.6887760251;0.000269078495038;0.000618857306573
0.077379095163807;10376.1094589697;0.00027127749712;0.000619252797508
0.077691107644306;10399.6831501421;0.000273477567781;0.000619650098905
0.078003120124805;10423.4081250111;0.000275678327889;0.000620049169936
0.078315132605304;10447.2805693905;0.000277879423522;0.000620449934959
0.078627145085804;10471.2954113133;0.000280080584584;0.000620852297792
0.078939157566303;10495.4470312303;0.000282281641352;0.000621256153792
0.079251170046802;10519.7297951276;0.000284482502177;0.000621661398831
0.079563182527301;10544.1384175734;0.00028668310561;0.000622067935344
0.0798751950078;10568.6681993597;0.000288883365103;0.000622475676222
0.0801872074883;10593.3151943042;0.000291083123843;0.000622884547479
0.080499219968799;10618.0763476728;0.000293282132188;0.000623294490419
0.080811232449298;10642.9496252195;0.000295480052669;0.000623705463616
0.081123244929797;10667.9341281791;0.000297676489913;0.000624117444641
0.081435257410296;10693.0301739267;0.000299871037029;0.0006245304312
0.081747269890796;10718.2393179781;0.000302063327147;0.000624944441294
0.082059282371295;10743.5630383837;0.000304252954796;0.00062535949147
0.082371294851794;10768.9993772688;0.000306439190559;0.00062577554196
0.082683307332293;10794.5393137315;0.0003086206598;0.000626192438103
0.082995319812793;10820.1650968575;0.000310795203278;0.000626609884395
0.083307332293292;10845.8518348384;0.000312960047313;0.000627027471738
0.083619344773791;10871.5721698631;0.000315112268055;0.000627444754383
0.08393135725429;10897.3026188913;0.00031724941233;0.000627861352872
0.084243369734789;10923.029579388;0.000319370080761;0.000628277050315
0.084555382215289;10948.7531867156;0.000321474297151;0.000628691852885
0.084867394695788;10974.4879790162;0.000323563563079;0.000629105998258
0.085179407176287;11000.2603340718;0.000325640594872;0.000629519912159
0.085491419656786;11026.1035388744;0.000327708827289;0.000629934127524
0.085803432137286;11052.0518865088;0.000329771820114;0.000630349189069
