t [s];P [Pa];Q [m^3/s];A [m^2]
0;10156.1589734843;3.76879076052629E-06;0.000539924965488
0.000346020761246;10152.5546027083;3.74961570354509E-06;0.000539770117704
0.000692041522491;10148.9580436865;3.73069669637566E-06;0.000539615572864
0.001038062283737;10145.3692178512;3.71204265738015E-06;0.000539461327788
0.001384083044983;10141.7880449841;3.69366190201764E-06;0.000539307379222
0.001730103806228;10138.2144432241;3.67556211085686E-06;0.000539153723839
0.002076124567474;10134.6483290765;3.65775029889538E-06;0.000539000358237
0.00242214532872;10131.0896174325;3.64023278651992E-06;0.000538847278943
0.002768166089965;10127.5382216023;3.62301517244214E-06;0.000538694482411
0.003114186851211;10123.9941794561;3.60612100440554E-06;0.000538541970453
0.003460207612457;10120.4580664117;3.58965298791592E-06;0.000538389768024
0.003806228373702;10116.9317497381;3.57390481462367E-06;0.000538237955716
0.004152249134948;10113.4193517827;3.5595039699624E-06;0.000538086711307
0.004498269896194;10109.9281225759;3.54754107468661E-06;0.000537936347437
0.004844290657439;10106.4688575826;3.53963171440297E-06;0.000537787329747
0.005190311418685;10103.0555671079;3.53786720954765E-06;0.000537640262782
0.005536332179931;10099.7042879139;3.54463809799989E-06;0.000537495838899
0.005882352941176;10096.4311634067;3.56234910355256E-06;0.000537354755573
0.006228373702422;10093.2501311726;3.59307589160176E-06;0.000537217615673
0.006574394463668;10090.1706826812;3.63823261495686E-06;0.000537084830728
0.006920415224914;10087.1961664276;3.69832019988989E-06;0.000536956547539
0.007266435986159;10084.3229953556;3.77280892119283E-06;0.000536832613737
0.007612456747405;10081.5409258081;3.86018007130343E-06;0.000536712589569
0.007958477508651;10078.8343506164;3.95811818174052E-06;0.000536595803475
0.008304498269896;10076.184348291;4.06381547033964E-06;0.000536481440372
0.008650519031142;10073.5710974698;4.17433047399991E-06;0.000536368645795
0.008996539792388;10070.9762242319;4.28693666049902E-06;0.000536256627222
0.009342560553633;10068.3846995814;4.39940419347194E-06;0.000536144736076
0.009688581314879;10065.7860249166;4.51017592195612E-06;0.000536032519026
0.010034602076125;10063.1746012114;4.61842211918856E-06;0.00053591973409
0.01038062283737;10060.5493358736;4.72398199921535E-06;0.000535806333807
0.010726643598616;10057.9126678531;4.82721884544881E-06;0.000535692423271
0.011072664359862;10055.2693940082;4.9288456077159E-06;0.000535578209529
0.011418685121107;10052.6257521421;5.02978856711837E-06;0.000535463962035
0.011764705882353;10049.9890794304;5.13113640716946E-06;0.000535349997934
0.012110726643599;10047.3680855369;5.23418059474782E-06;0.000535236693902
0.012456747404844;10044.7734874576;5.34050962828384E-06;0.000535124513645
0.01280276816609;10042.2185685051;5.45209232308966E-06;0.000535014032133
0.013148788927336;10039.7192116883;5.5712834969546E-06;0.000534905937115
0.013494809688581;10037.2931131599;5.70070846703851E-06;0.000534800995163
0.013840830449827;10034.9581426354;5.84302150372824E-06;0.000534699980761
0.014186851211073;10032.7300948476;6.00057446334197E-06;0.000534603578982
0.014532871972318;10030.620283208;6.17506247616647E-06;0.000534512281248
0.014878892733564;10028.6335069586;6.36722534853235E-06;0.000534426297188
0.01522491349481;10026.766860684;6.57667395386455E-06;0.000534345502917
0.015570934256055;10025.0096748561;6.80188402696202E-06;0.000534269438272
0.015916955017301;10023.3446313018;7.04036335564602E-06;0.000534197354954
0.016262975778547;10021.7498523887;7.28896194805207E-06;0.000534128306876
0.016608996539792;10020.2015751045;7.54426694337357E-06;0.000534061265906
0.016955017301038;10018.676929006;7.80301048097297E-06;0.000533995242164
0.017301038062284;10017.1563517627;8.06242116744316E-06;0.000533929388679
0.01764705882353;10015.6252835307;8.32046606997129E-06;0.000533863074851
0.017993079584775;10014.0749485178;8.57595536191222E-06;0.000533795920405
0.018339100346021;10012.5022168746;8.82850956845977E-06;0.000533727789517
0.018685121107267;10010.9087024241;9.07841378887787E-06;0.000533658751837
0.019031141868512;10009.2995427316;9.32642658749809E-06;0.000533589029719
0.019377162629758;10007.6824730603;9.57363570602399E-06;0.000533518958172
0.019723183391004;10006.0676599342;9.82143092158143E-06;0.000533448977701
0.020069204152249;10004.4683695036;1.00716060546207E-05;0.000533379663322
0.020415224913495;10002.9021019258;1.03265357003723E-05;0.000533311773803
0.020761245674741;10001.3915213929;1.05893268414671E-05;0.000533246292049
0.021107266435986;9999.96447060209;1.08638387562136E-05;0.000533184425813
0.021453287197232;9998.65258738988;1.11544980221537E-05;0.000533127547757
0.021799307958478;9997.48845322447;1.14658961620237E-05;0.000533077071807
0.022145328719723;9996.5016583699;1.18022248931304E-05;0.000533034282419
0.022491349480969;9995.71452511936;1.21666570143194E-05;0.000533000148958
0.022837370242215;9995.13838794514;1.25608047410533E-05;0.000532975164178
0.02318339100346;9994.77125192556;1.2984376399567E-05;0.000532959242502
0.023529411764706;9994.59736923667;1.34351112998254E-05;0.000532951701568
0.023875432525952;9994.58886912369;1.3909013278352E-05;0.000532951332934
0.024221453287197;9994.70915452224;1.44008413058153E-05;0.000532956549475
0.024567474048443;9994.91743807925;1.49047654156411E-05;0.000532965582234
0.024913494809689;9995.17360256797;1.54150685195287E-05;0.000532976691321
0.025259515570934;9995.44256403197;1.59267736809735E-05;0.000532988355193
0.02560553633218;9995.69747479469;1.64360998589384E-05;0.000532999409566
0.025951557093426;9995.92137701638;1.69406895511331E-05;0.000533009119095
0.026297577854671;9996.10723601306;1.74395988580696E-05;0.00053301717878
0.026643598615917;9996.25657555446;1.79330838102546E-05;0.000533023654752
0.026989619377163;9996.37735582274;1.84222786809882E-05;0.000533028892235
0.027335640138408;9996.48203793422;1.89089067931719E-05;0.000533033431612
0.027681660899654;9996.58664341736;1.93951440728195E-05;0.000533037967638
0.0280276816609;9996.7110930863;1.98836776912036E-05;0.000533043364134
0.028373702422145;9996.88045287743;2.0377904410469E-05;0.000533050707999
0.028719723183391;9997.12621265978;2.08821384474218E-05;0.000533061364626
0.029065743944637;9997.48657239707;2.14016757110608E-05;0.000533076990253
0.029411764705882;9998.00495176573;2.19425966787728E-05;0.000533099467212
0.029757785467128;9998.72647514153;2.25112693165564E-05;0.000533130751355
0.030103806228374;9999.69282585113;2.31136085138498E-05;0.000533172648737
0.030449826989619;10000.9364071079;2.37542291707249E-05;0.000533226562271
0.030795847750865;10002.4750347556;2.4435673002769E-05;0.000533293261577
0.031141868512111;10004.3083480009;2.51578837827031E-05;0.000533372727515
0.031487889273356;10006.4167831481;2.59180556841824E-05;0.000533464108073
0.031833910034602;10008.7634135873;2.6710899628224E-05;0.000533565798689
0.032179930795848;10011.2983606695;2.75292842869026E-05;0.000533675634057
0.032525951557094;10013.9649697906;2.83651331376339E-05;0.000533791156322
0.032871972318339;10016.7066350339;2.92104131295872E-05;0.000533909911114
0.033217993079585;10019.4730980357;3.00580421533061E-05;0.000534029720456
0.033564013840831;10022.225232756;3.09025702326861E-05;0.000534148889785
0.033910034602076;10024.9376939337;3.17405437992044E-05;0.00053426632221
0.034256055363322;10027.5992567305;3.25705292694498E-05;0.000534381532717
0.034602076124568;10030.2111054509;3.33928361188234E-05;0.000534494573607
0.034948096885813;10032.7838520313;3.42090571931123E-05;0.000534605905064
0.035294117647059;10035.3345231235;3.50216117944231E-05;0.000534716264501
0.035640138408305;10037.8846702901;3.58334642840858E-05;0.000534826584614
0.03598615916955;10040.460143455;3.66480993047641E-05;0.00053493798344
0.036332179930796;10043.0922252647;3.7469708978751E-05;0.000535051813261
0.036678200692042;10045.8191254275;3.83034428177642E-05;0.000535169725006
0.037024221453287;10048.6865513877;3.91555280676162E-05;0.000535293692604
0.037370242214533;10051.7462907795;4.00330997411037E-05;0.00053542595132
0.037716262975779;10055.0523611129;4.09436708845612E-05;0.000535568830919
0.038062283737024;10058.655077397;4.18942913228747E-05;0.000535724498982
0.03840830449827;10062.5940983462;4.28905486258236E-05;0.000535894660353
0.038754325259516;10066.8919252701;4.39356269777798E-05;0.00053608027658
0.039100346020761;10071.5493380132;4.5029642093471E-05;0.000536281369556
0.039446366782007;10076.5438737233;4.61694152944596E-05;0.000536496957046
0.039792387543253;10081.831803589;4.73487545014605E-05;0.000536725139553
0.040138408304498;10087.3533169918;4.85592002915794E-05;0.000536963325599
0.040484429065744;10093.0399675303;4.97910987450426E-05;0.000537208554243
0.04083044982699;10098.8230186876;5.10348014149661E-05;0.000537457855733
0.041176470588235;10104.6412259975;5.22817779396341E-05;0.000537708587056
0.041522491349481;10110.4468035103;5.35254581126236E-05;0.000537958688479
0.041868512110727;10116.2087696925;5.4761686553344E-05;0.000538206826637
0.042214532871972;10121.9134307533;5.59887566097682E-05;0.000538452414082
0.042560553633218;10127.5623053979;5.72070711291826E-05;0.000538695518708
0.042906574394464;10133.1683719458;5.84185632477186E-05;0.000538936701224
0.043252595155709;10138.7521092562;5.96260977267562E-05;0.000539176844112
0.043598615916955;10144.3387747134;6.08330687787726E-05;0.000539417034098
0.043944636678201;10149.957681658;6.20433085857483E-05;0.000539658530776
0.044290657439446;10155.6432424776;6.32612718071323E-05;0.000539902811117
0.044636678200692;10161.4366774813;6.44923314695439E-05;0.000540151642452
0.044982698961938;10167.3868950848;6.57429615953481E-05;0.000540407119677
0.045328719723183;10173.5492493444;6.70206103820637E-05;0.000540671611214
0.045674740484429;10179.9815729322;6.83331695769521E-05;0.000540947588103
0.046020761245675;10186.7378062579;6.96880823401441E-05;0.000541237350282
0.046366782006921;10193.8603858239;7.10912572784932E-05;0.000541542700267
0.046712802768166;10201.3730599262;7.2546032238252E-05;0.000541864635978
0.047058823529412;10209.2758334086;7.40524378215322E-05;0.000542203135718
0.047404844290658;10217.543316831;7.56069489396896E-05;0.000542557089753
0.047750865051903;10226.1270052218;7.72028029969869E-05;0.000542924400545
0.048096885813149;10234.9611475531;7.88308364482431E-05;0.00054330223651
0.048442906574395;10243.9711115574;8.04806801828264E-05;0.000543687391787
0.04878892733564;10253.0826748121;8.2142084426711E-05;0.000544076684447
0.049134948096886;10262.2305724227;8.38061290939882E-05;0.000544467321598
0.049480968858132;10271.3648959251;8.54661146924209E-05;0.000544857171498
0.049826989619377;10280.4544733038;8.71180082055075E-05;0.000545244905963
0.050173010380623;10289.4870194161;8.87604161195808E-05;0.000545630004628
0.050519031141869;10298.466471789;9.03941494979042E-05;0.000546012639303
0.050865051903114;10307.4084868192;9.20215289128533E-05;0.000546393480396
0.05121107266436;10316.3357202952;9.36456729842703E-05;0.00054677349478
0.051557093425606;10325.2745100778;9.52700127120079E-05;0.00054715380394
0.051903114186851;10334.2538486773;9.68981642858662E-05;0.000547535639891
0.052249134948097;10343.306439449;9.85341290332863E-05;0.000547920389753
0.052595155709343;10352.4706654358;0.000100182644031;0.000548309678915
0.052941176470588;10361.7918480822;0.000101849437942;0.000548705423747
0.053287197231834;10371.3213755329;0.00010354117522;0.000549109793699
0.05363321799308;10381.1130233633;0.000105264981386;0.000549525054397
0.053979238754325;10391.2167842293;0.000107027589723;0.000549953305611
0.054325259515571;10401.671422831;0.000108834284265;0.000550396166102
0.054671280276817;10412.4974978183;0.000110687893546;0.0005508544794
0.055017301038062;10423.6926025858;0.000112588093122;0.000551328114676
0.055363321799308;10435.2300956942;0.000114531205458;0.000551815916149
0.055709342560554;10447.0617788005;0.000116510567008;0.000552315819714
0.056055363321799;10459.1240714912;0.000118517398845;0.000552825116939
0.056401384083045;10471.3464684081;0.000120542004639;0.000553340814351
0.056747404844291;10483.6606251222;0.000122575054958;0.000553860017704
0.057093425605536;10496.0083861668;0.000124608711931;0.000554380269962
0.057439446366782;10508.3474129047;0.000126637399162;0.000554899786723
0.057785467128028;10520.6536723787;0.000128658111152;0.000555417558541
0.058131487889273;10532.9207440209;0.000130670259558;0.000555933319046
0.058477508650519;10545.1565211539;0.000132675145461;0.000556447403788
0.058823529411765;10557.3783292462;0.000134675212564;0.000556960543249
0.05916955017301;10569.6080561498;0.000136673320897;0.000557473657225
0.059515570934256;10581.8688461759;0.000138672273295;0.000557987715609
0.059861591695502;10594.1841773738;0.000140674716578;0.000558503699562
0.060207612456747;10606.5790740455;0.000142683378699;0.000559022652199
0.060553633217993;10619.0822865481;0.00014470146413;0.000559545769497
0.060899653979239;10631.7278644117;0.000146732967374;0.000560074465444
0.061245674740485;10644.5547786348;0.000148782697235;0.00056061035539
0.06159169550173;10657.6039853212;0.000150855913629;0.000561155132631
0.061937716262976;10670.9132699058;0.000152957620184;0.000561710352936
0.062283737024222;10684.5110331071;0.000155091679806;0.00056227717591
0.062629757785467;10698.4106164533;0.000157259987643;0.000562856130044
0.062975778546713;10712.6067045704;0.000159461929426;0.000563446965372
0.063321799307959;10727.0748332661;0.000161694280028;0.000564048636118
0.063667820069204;10741.774252763;0.000163951583078;0.000564659422956
0.06401384083045;10756.6535797042;0.00016622693233;0.000565277170546
0.064359861591696;10771.6580414378;0.000168512982269;0.000565899589951
0.064705882352941;10786.7368201946;0.000170802971246;0.000566524563659
0.065051903114187;10801.849087391;0.000173091552141;0.000567150394762
0.065397923875433;10816.9677204903;0.000175375284694;0.000567775958959
0.065743944636678;10832.0802833003;0.000177652730517;0.000568400742663
0.066089965397924;10847.1874622798;0.000179924182299;0.000569024775851
0.06643598615917;10862.2996399693;0.000182191130965;0.000569648488409
0.066782006920415;10877.432556891;0.000184455614313;0.000570272529628
0.067128027681661;10892.6033119821;0.000186719634483;0.000570897602555
0.067474048442907;10907.8278238879;0.000188984811725;0.000571524359285
0.067820069204152;10923.1202760497;0.000191252351127;0.000572153378346
0.068166089965398;10938.4942662172;0.000193523277628;0.000572785212215
0.068512110726644;10953.9647282881;0.000195798795349;0.000573420466288
0.068858131487889;10969.5494449001;0.00019808058853;0.000574059860654
0.069204152249135;10985.2691873832;0.000200370913016;0.000574704235296
0.069550173010381;11001.1460855981;0.000202672411854;0.000575354482785
0.069896193771626;11017.2005121261;0.000204987691527;0.000576011420535
0.070242214532872;11033.4473182071;0.000207318780011;0.000576675637245
0.070588235294118;11049.8925094923;0.000209666627912;0.00057734735813
0.070934256055363;11066.5313428833;0.000212030800658;0.000578026368895
0.071280276816609;11083.3484249096;0.000214409452212;0.000578712021756
0.071626297577855;11100.3198429288;0.000216799590229;0.000579403324254
0.0719723183391;11117.4168356058;0.000219197564832;0.000580099090234
0.072318339100346;11134.6101537851;0.000221599659791;0.000580798118048
0.072664359861592;11151.8741567262;0.000224002648099;0.000581499357006
0.073010380622837;11169.1898325103;0.000226404194163;0.00058220202922
0.073356401384083;11186.5462581786;0.000228803032444;0.000582905687512
0.073702422145329;11203.9404182667;0.000231198911691;0.000583610206514
0.074048442906574;11221.3756686338;0.00023359234837;0.00058431571902
0.07439446366782;11238.8593804779;0.000235984269726;0.000585022519558
0.074740484429066;11256.4003858841;0.000238375639657;0.000585730960499
0.075086505190312;11274.0068212577;0.000240767156582;0.000586441364797
0.075432525951557;11291.6847978346;0.000243159086887;0.000587153972555
0.075778546712803;11309.4380500843;0.000245551254947;0.000587868927257
0.076124567474049;11327.2684176071;0.000247943165282;0.000588586295605
0.076470588235294;11345.1768024351;0.000250334199203;0.000589306106343
0.07681660899654;11363.1641707929;0.000252723816436;0.000590028390648
0.077162629757786;11381.2322397394;0.000255111702675;0.000590753209644
0.077508650519031;11399.3836597159;0.000257497830056;0.00059148066157
0.077854671280277;11417.6217039758;0.000259882428939;0.000592210869168
0.078200692041523;11435.9496376078;0.000262265895555;0.000592943954326
0.078546712802768;11454.3700185641;0.000264648674212;0.000593680010169
0.078892733564014;11472.884170181;0.000267031152769;0.000594419080144
0.07923875432526;11491.4919790232;0.000269413598575;0.000595161150207
0.079584775086505;11510.1920520863;0.000271796144571;0.000595906155367
0.079930795847751;11528.9821555608;0.00027417881811;0.000596653997396
0.080276816608997;11547.8597857172;0.000276561593259;0.00059740456769
0.080622837370242;11566.8227055877;0.000278944443451;0.000598157768624
0.080968858131488;11585.8693148364;0.000281327375139;0.000598913528179
0.081314878892734;11604.9987863248;0.00028371043213;0.00059967180522
0.081660899653979;11624.210977067;0.000286093671053;0.000600432585817
0.082006920415225;11643.5061812314;0.000288477117627;0.000601195873346
0.082352941176471;11662.884824322;0.000290860718541;0.00060196167632
0.082698961937716;11682.3471969677;0.00029324430423;0.000602729997856
0.083044982698962;11701.893069145;0.000295627539314;0.000603500820498
0.083391003460208;11721.5208752702;0.00029800981467;0.000604274074237
0.083737024221453;11741.2264013673;0.000300390070572;0.000605049585144
0.084083044982699;11761.0013547113;0.000302766606916;0.000605827019708
0.084429065743945;11780.8325260463;0.000305136985234;0.000606605852793
0.08477508650519;11800.7022376353;0.000307498124074;0.00060738538621
0.085121107266436;11820.5903886119;0.000309846631757;0.000608164829756
0.085467128027682;11840.477829512;0.000312179333685;0.000608943433745
0.085813148788927;11860.3502701004;0.000314493872803;0.000609720641553
0.086159169550173;11880.2016621499;0.000316789223354;0.000610496220711
0.086505190311419;11900.0360961473;0.000319065973818;0.000611270335205
0.086851211072664;11919.8676610441;0.00032132629754;0.000612043537966
0.08719723183391;11939.718285456;0.000323573615676;0.000612816684829
0.087543252595156;11959.6141146287;0.000325812037786;0.000613590792073
0.087889273356401;11979.5813193483;0.000328045716406;0.000614366872768
0.088235294117647;11999.6423000433;0.000330278261335;0.000615145789457
0.088581314878893;12019.8130545602;0.000332512329404;0.000615928152852
0.088927335640139;12040.102109493;0.000334749449489;0.000616714281727
0.089273356401384;12060.5109970367;0.000336990079596;0.00061750422287
0.08961937716263;12081.0359105399;0.000339233840645;0.000618297816478
0.089965397923876;12101.6699716583;0.00034147984209;0.000619094784771
0.090311418685121;12122.4055153176;0.000343727011226;0.000619894820743
0.090657439446367;12143.2359194962;0.000345974356837;0.000620697658818
0.091003460207613;12164.1561920067;0.000348221050609;0.000621503097223
0.091349480968858;12185.1613584097;0.000350466184037;0.000622310935688
0.091695501730104;12206.2426249465;0.000352708197789;0.000623120828116
0.09204152249135;12227.3827266064;0.000354944195815;0.000623932104949
0.092387543252595;12248.5527986957;0.000357169495486;0.00062474365507
0.092733564013841;12269.7128994368;0.000359377732369;0.000625553948192
0.093079584775087;12290.8170172692;0.000361561642643;0.000626361228559
0.093425605536332;12311.8216270467;0.000363714379029;0.00062716384289
0.093771626297578;12332.6954026378;0.000365830996574;0.000627960610297
0.094117647058824;12353.4271406934;0.000367909661861;0.000628751121687
0.094463667820069;12374.0294714217;0.000369952218857;0.000629535876927
0.094809688581315;12394.5372643695;0.000371963946883;0.000630316219483
0.095155709342561;12415.0012474006;0.000373952590286;0.000631094089678
