t [s];P [Pa];Q [m^3/s];A [m^2];P_f [Pa];P_b [Pa];Q_f [m^3/s];Q_b [m^3/s]
0;13332;0;0.00295052435238;0.049869262287558;0.000222205199151;4.87670297034676E-08;-2.17293921633215E-10
0.003311258278146;13332.0500914675;4.85497357818344E-08;0.00295054109798;0.199372581259892;0.000887194600212;1.94965959917479E-07;-8.67585431293568E-10
0.006622516556291;13332.2002597759;1.94098374486185E-07;0.002950591299596;0.448360928738671;0.002033823227416;4.38451056351587E-07;-1.98887076310462E-09
0.009933774834437;13332.450394752;4.36462185588482E-07;0.00295067492125;0.796585333771043;0.003725425099139;7.78978850919654E-07;-3.64308409897491E-09
0.013245033112583;13332.8003107589;7.75335766820679E-07;0.002950791902302;1.24369699076233;0.006011925636632;1.21620824748324E-06;-5.87904738638417E-09
0.016556291390729;13333.2497089164;1.21032920009686E-06;0.002950942144812;1.78924765033509;0.008930535499239;1.74970090407053E-06;-8.73314883694075E-09
0.019867549668874;13333.7981781858;1.74096775523359E-06;0.002951125513898;2.43269013166119;0.01250891281651;2.37892173388919E-06;-1.22324352700437E-08
0.02317880794702;13334.4451990445;2.36668929861915E-06;0.002951341838944;3.17337899350476;0.016779079266974;3.10323956152996E-06;-1.64082206046072E-08
0.026490066225166;13335.1901580728;3.08683134092535E-06;0.002951590918472;4.01057124197986;0.021775088253987;3.921927815089E-06;-2.12938055817702E-08
0.029801324503311;13336.0323463302;3.90063400950723E-06;0.002951872519572;4.94342715096314;0.027531732539909;4.83416532844329E-06;-2.69232139593876E-08
0.033112582781457;13336.9709588835;4.8072421144839E-06;0.002952186377734;5.97101117170909;0.034079478407378;5.83903723075982E-06;-3.33262386393759E-08
0.036423841059603;13338.0050906501;5.80571099212044E-06;0.002952532195426;7.09229297803042;0.041446112161318;6.93553596857924E-06;-4.05300517823659E-08
0.039735099337748;13339.1337390902;6.89500591679687E-06;0.002952909642976;8.30614860984565;0.049657205770245;8.12256242408462E-06;-4.85596601534634E-08
0.043046357615894;13340.3558058156;8.07400276393115E-06;0.002953318359081;9.6113617252426;0.058737967614944;9.39892713949215E-06;-5.74397149658221E-08
0.04635761589404;13341.6700996929;9.34148742452633E-06;0.002953757951812;11.0066249401618;0.068712401579249;1.0763351627128E-05;-6.71936895612578E-08
0.049668874172186;13343.0753373417;1.06961579375667E-05;0.002954227998753;12.4905412695267;0.079603227127695;1.22144697786977E-05;-7.7843801246082E-08
0.052980132450331;13344.5701444967;1.21366259774517E-05;0.002954728047421;14.0616256615967;0.091431274865562;1.3750829365735E-05;-8.941042021936E-08
0.056291390728477;13346.1530569365;1.36614189455156E-05;0.002955257615541;15.7183066308496;0.104215947012825;1.53708936363879E-05;-1.01912519863972E-07
0.059602649006623;13347.8225225779;1.52689811165239E-05;0.00295581619171;17.4589279800656;0.117975278981323;1.70730429994449E-05;-1.15367736966596E-07
0.062913907284768;13349.576903259;1.69576752624783E-05;0.002956403235956;19.2817506119991;0.13272621568283;1.88555767959583E-05;-1.29792641913478E-07
0.066225165562914;13351.4144768277;1.87257841540448E-05;0.002957018180393;21.1849544249164;0.148484479526623;2.07167151528916E-05;-1.45202609610285E-07
0.06953642384106;13353.3334389044;2.05715125432813E-05;0.002957660429774;23.1666402921859;0.165264636041291;2.26546009189545E-05;-1.61611883652809E-07
0.072847682119205;13355.3319049282;2.24929890353017E-05;0.002958329362131;25.224832121681;0.183080074324828;2.46673016784853E-05;-1.79033557206557E-07
0.076158940397351;13357.407912196;2.44882681212788E-05;0.002959024329416;27.3574789932976;0.201943147743478;2.67528118417281E-05;-1.97479710598901E-07
0.079470198675497;13359.559422141;2.65553321311292E-05;0.002959744658216;29.5624573703321;0.221865228067639;2.8909054807329E-05;-2.16961464254928E-07
0.082781456953642;13361.7843225984;2.8692093343074E-05;0.002960489650474;31.8375733822591;0.242856799079602;3.11338851946648E-05;-2.37489070241209E-07
0.086092715231788;13364.0804301813;3.08963961244236E-05;0.002961258584234;34.1805651752369;0.264927491807313;3.34250911423916E-05;-2.59071946715721E-07
0.089403973509934;13366.445492667;3.31660191956758E-05;0.002962050714398;36.5891053276434;0.288086160078215;3.57803966705932E-05;-2.81718751814416E-07
0.09271523178808;13368.8771914877;3.54986779187788E-05;0.002962865273515;39.0608033270807;0.312340941010326;3.81974641030389E-05;-3.05437442805348E-07
0.096026490066225;13371.3731442681;3.78920266602335E-05;0.002963701472587;41.5932081057524;0.337699339077769;4.06738965465217E-05;-3.30235358295944E-07
0.099337748344371;13373.9309074448;4.03436611882258E-05;0.002964558501902;44.1838106306569;0.364168294263319;4.32072404238015E-05;-3.56119284877933E-07
0.102649006622517;13376.5479789249;4.28511211389236E-05;0.002965435531881;46.83004654534;0.391754257370309;4.57949880569692E-05;-3.83095530776062E-07
0.105960264900662;13379.2218008027;4.54118925261931E-05;0.002966331713949;49.5292988597285;0.420463256723398;4.84345802978285E-05;-4.11169991074152E-07
0.109271523178808;13381.9497621165;4.80234103067544E-05;0.002967246181411;52.2789006847195;0.450300971131824;5.11234092020446E-05;-4.40348219066577E-07
0.112582781456954;13384.7292016559;5.06830609829781E-05;0.002968178050359;55.0761380080453;0.481272799188897;5.38588207436533E-05;-4.70635494023338E-07
0.115894039735099;13387.5574108072;5.338818524963E-05;0.002969126420582;57.9182525080281;0.513383930555069;5.66381175666288E-05;-5.02036890901991E-07
0.119205298013245;13390.4316364386;5.61360806757268E-05;0.002970090376498;60.8024444017709;0.546639413160936;5.94585617701188E-05;-5.3455734606113E-07
0.122516556291391;13393.3490838149;5.89240044240577E-05;0.002971068988095;63.7258753243979;0.581044219746044;6.23173777240483E-05;-5.68201722330143E-07
0.125827814569536;13396.3069195441;6.17491760017181E-05;0.002972061311884;66.6856712359341;0.616603311139357;6.521175491175E-05;-6.02974870891402E-07
0.129139072847682;13399.3022745471;6.46087800408586E-05;0.002973066391861;69.6789253524635;0.653321698024698;6.81388507963379E-05;-6.3888169168104E-07
0.132450331125828;13402.3322470505;6.74999691046568E-05;0.002974083260484;72.7027010982057;0.691204499456838;7.10957937075343E-05;-6.75927190610709E-07
0.135761589403974;13405.3939055977;7.04198665169236E-05;0.002975110939651;75.7540350752041;0.730256998538721;7.40796857457194E-05;-7.14116534012922E-07
0.139072847682119;13408.4842920737;7.33655692117065E-05;0.002976148441693;78.8299400473256;0.770484694285734;7.70876056999792E-05;-7.53455099360721E-07
0.142384105960265;13411.6004247416;7.63341506006184E-05;0.002977194770363;81.9274079353362;0.811893349782743;8.01166119769845E-05;-7.93948522362106E-07
0.145695364238411;13414.7393012851;7.93226634546224E-05;0.00297824892184;85.0434128198483;0.854489036144727;8.31637455375617E-05;-8.35602739945365E-07
0.149006622516556;13417.897901856;8.23281427976163E-05;0.002979309885733;88.1749139489769;0.898278172160353;8.62260328378737E-05;-8.78424029027515E-07
0.152317880794702;13421.0731921211;8.53476088088462E-05;0.002980376646086;91.3188587475995;0.943267559190893;8.93004887721708E-05;-9.22419040644614E-07
0.155629139072848;13424.2621263068;8.83780697315262E-05;0.002981448182385;94.4721858251605;0.989464411145548;9.23841196141089E-05;-9.67594829258636E-07
0.158940397350993;13427.4616502363;9.14165247848502E-05;0.002982523470569;97.6318279790213;1.0368763792375;9.54739259537257E-05;-1.01395887697358E-06
0.162251655629139;13430.6687043583;9.44599670767522E-05;0.002983601484038;100.794715190408;1.08551157131729;9.85669056271654E-05;-1.06151911243663E-06
0.165562913907285;13433.8802267617;9.75053865147288E-05;0.00298468119466;103.957777610066;1.13537856562221;0.000101660056636;-1.11028392428547E-06
0.16887417218543;13437.0931561757;0.000100549772712;0.002985761573775;107.117948530813;1.1864864187104;0.000104750380056;-1.16026216890464E-06
0.172185430463576;13440.3044349495;0.000103590117887;0.002986841593194;110.272167344202;1.23884466748087;0.000107834882924;-1.2114631724058E-06
0.175496688741722;13443.5110120117;0.000106623419752;0.002987920226201;113.417382478621;1.2924633251376;0.000110910581117;-1.26389672667628E-06
0.178807947019868;13446.7098458038;0.00010964668439;0.002988996448538;116.550554316178;1.34735287101248;0.000113974502199;-1.31757307942911E-06
0.182119205298013;13449.8979071872;0.000112656929119;0.002990069239393;119.668658085816;1.40352423416972;0.000117023688254;-1.37250291816914E-06
0.185430463576159;13453.07218232;0.000115651185336;0.002991137582378;122.768686730141;1.46098877079606;0.000120055198688;-1.42869734808377E-06
0.188741721854305;13456.2296755009;0.00011862650134;0.002992200466494;125.847653743553;1.51975823534095;0.000123066113005;-1.48616786382126E-06
0.19205298013245;13459.3674119789;0.000121579945141;0.002993256887098;128.90259597929;1.57984474546996;0.000126053533551;-1.54492631521558E-06
0.195364238410596;13462.4824407248;0.000124508607235;0.002994305846845;131.930576423102;1.64126074089023;0.000129014588226;-1.60498486702725E-06
0.198675496688742;13465.571837164;0.000127409603359;0.002995346356634;134.928686931319;1.70401893614047;0.000131946433164;-1.66635595277204E-06
0.201986754966887;13468.6327058675;0.000130280077211;0.00299637743653;137.894050931151;1.76813226749049;0.000134846255372;-1.72905222279603E-06
0.205298013245033;13471.6621831986;0.000133117203149;0.002997398116685;140.823826081121;1.83361383411335;0.00013771127533;-1.79308648674966E-06
0.208609271523179;13474.6574399152;0.000135918188843;0.002998407438237;143.715206889614;1.90047683372512;0.000140538749556;-1.85847165064727E-06
0.211920529801324;13477.6156837233;0.000138680277905;0.002999404454197;146.565427289564;1.96873449295937;0.000143325973118;-1.92522064877968E-06
0.21523178807947;13480.5341617825;0.00014140075247;0.003000388230327;149.371763167396;2.03839999269336;0.000146070282114;-1.993346370697E-06
0.218543046357616;13483.4101631601;0.000144076935744;0.003001357845994;152.13153484439;2.1094863886498;0.000148769056092;-2.06286158355722E-06
0.221854304635762;13486.241021233;0.000146706194508;0.003002312395017;154.842109508692;2.18200652761331;0.000151419720431;-2.13377885019868E-06
0.225165562913907;13489.0241160363;0.000149285941581;0.003003250986489;157.500903596293;2.25597295960804;0.000154019748671;-2.20611044326143E-06
0.228476821192053;13491.7568765559;0.000151813638228;0.003004172745589;160.105385119302;2.33139784641335;0.000156566664786;-2.27986825571877E-06
0.231788079470199;13494.4367829657;0.000154286796531;0.003005076814372;162.653075939974;2.40829286683061;0.000159058045413;-2.35506370824139E-06
0.235099337748344;13497.0613688068;0.000156702981705;0.003005962352545;165.141553988949;2.48666911912615;0.000161491522015;-2.43170765379765E-06
0.23841059602649;13499.6282231081;0.000159059814361;0.003006828538215;167.568455426263;2.56653702115902;0.000163864782999;-2.50981027998688E-06
0.241721854304636;13502.1349924474;0.000161354972719;0.003007674568632;169.931476743723;2.64790620862341;0.000166175575769;-2.58938100952982E-06
0.245033112582781;13504.5793829523;0.00016358619476;0.003008499660899;172.228376807321;2.73078543189581;0.000168421708728;-2.67042839939818E-06
0.248344370860927;13506.9591622392;0.000165751280328;0.003009303052671;174.456978838389;2.81518245203941;0.000170601053207;-2.75296003911727E-06
0.251655629139073;13509.2721612904;0.000167848093168;0.003010084002827;176.615172332288;2.90110393644952;0.00017271154535;-2.83698244871723E-06
0.254966887417219;13511.5162762687;0.000169874562901;0.003010841792127;178.700914913453;2.98855535471849;0.000174751187922;-2.92250097689762E-06
0.258278145695364;13513.6894702682;0.000171828686945;0.00301157572384;180.712234125665;3.07754087522711;0.000176718052063;-3.00951969990872E-06
0.26158940397351;13515.7897750009;0.000173708532364;0.003012285124361;182.647229156519;3.16806326304636;0.000178610278975;-3.0980413217071E-06
0.264900662251656;13517.8152924196;0.000175512237653;0.003012969343796;184.504072495041;3.26012377967577;0.000180426081537;-3.18806707590944E-06
0.268211920529801;13519.7641962747;0.000177238014461;0.003013627756528;186.281011521521;3.35372208520171;0.000182163745868;-3.27959663011453E-06
0.271523178807947;13521.6347336067;0.000178884149238;0.003014259761765;187.976370028643;3.44885614339256;0.000183821632808;-3.37262799309734E-06
0.274834437086093;13523.425226172;0.000180449004815;0.003014864784057;189.588549673045;3.54552213029419;0.000185398179342;-3.46715742542225E-06
0.278145695364238;13525.1340718033;0.000181931021917;0.003015442273797;191.116031356509;3.64371434688856;0.000186891899947;-3.56317935403311E-06
0.281456953642384;13526.7597457034;0.000183328720593;0.003015991707694;192.557376536009;3.74342513629436;0.000188301387875;-3.66068629128472E-06
0.28476821192053;13528.3008016723;0.000184640701584;0.003016512589225;193.911228461903;3.84464480607654;0.000189625316365;-3.75966875896872E-06
0.288079470198676;13529.755873268;0.000185865647606;0.003017004449062;195.176313343586;3.94736155610664;0.000190862439778;-3.86011521776792E-06
0.291390728476821;13531.1236748997;0.00018700232456;0.003017466845477;196.351441442;4.05156141248807;0.000192011594674;-3.96201200264298E-06
0.294701986754967;13532.4030028545;0.000188049582671;0.003017899364716;197.435508088387;4.15722816800364;0.000193071700797;-4.06534326459612E-06
0.298013245033113;13533.5927362564;0.000189006357533;0.003018301621362;198.427494628781;4.2643433294936;0.000194041762011;-4.1700909192115E-06
0.301324503311258;13534.6918379583;0.000189871671091;0.003018673258658;199.326469293707;4.37288607260869;0.000194920867138;-4.27623460240892E-06
0.304635761589404;13535.6993553663;0.000190644632536;0.003019013948818;200.131587992665;4.48283320427032;0.000195708190746;-4.38375163373377E-06
0.30794701986755;13536.6144211969;0.000191324439112;0.003019323393307;200.842095032966;4.5941591332155;0.000196402993844;-4.49261698755191E-06
0.311258278145695;13537.4362541662;0.000191910376857;0.003019601323094;201.457323762563;4.70683584893168;0.000197004624515;-4.60280327245167E-06
0.314569536423841;13538.1641596115;0.000192401821243;0.003019847498889;201.976697136544;4.82083290926185;0.000197512518468;-4.71428071912185E-06
0.317880794701987;13538.7975300458;0.000192798237749;0.003020061711344;202.399728206987;4.93611743692172;0.000197926199518;-4.82701717694783E-06
0.321192052980132;13539.3358456439;0.000193099182341;0.00302024378124;202.726020535961;5.05265412514596;0.000198245279989;-4.94097811952893E-06
0.324503311258278;13539.7786746611;0.00019330430187;0.003020393559637;202.955268532382;5.17040534446748;0.000198469461044;-5.05612674910198E-06
0.327814569536424;13540.1256738769;0.000193413334295;0.003020510928043;203.087257724587;5.28933249656069;0.000198598532953;-5.17242532045812E-06
0.33112582781457;13540.3765902211;0.000193426107632;0.003020595798968;203.121865038689;5.4094053414557;0.000198632375361;-5.28984426200455E-06
0.334437086092715;13540.5312703801;0.000193342531099;0.003020648119183;203.059059335534;5.53064359634779;0.000198570957817;-5.40840285513871E-06
0.337748344370861;13540.5897029319;0.000193162554962;0.00302066788398;202.898902812676;5.65324940235841;0.000198414341145;-5.52829877316973E-06
0.341059602649007;13540.552152215;0.000192886042372;0.003020655182451;202.641554219056;5.77792321838354;0.000198162680584;-5.65021699313847E-06
0.344370860927152;13540.4194774374;0.000192512463591;0.003020610305426;202.287274598216;5.90643582281795;0.000197816231409;-5.77588915491077E-06
0.347682119205298;13540.193710421;0.000192040342254;0.003020533940872;201.836434840311;6.04239375767219;0.000197375356312;-5.9088420871031E-06
0.350993377483444;13539.878828598;0.000191466514224;0.003020427435295;201.289521850219;6.19189769818024;0.000196840531435;-6.05504162511585E-06
0.354304635761589;13539.4814195484;0.00019078548981;0.003020293018403;200.647138253701;6.36360597467277;0.000196212346086;-6.22295472901691E-06
0.357615894039735;13539.0107442284;0.000189989391357;0.003020133824303;199.909991619848;6.56780548162757;0.000195491492195;-6.42264092777349E-06
0.360927152317881;13538.4777971015;0.000189068851267;0.003019953573394;199.078874059636;6.81454998249329;0.000194678744364;-6.66393177208942E-06
0.364238410596026;13537.8934240421;0.000188014812592;0.003019755935627;198.154639393516;7.11153218207359;0.000193774937543;-6.95434993918927E-06
0.367549668874172;13537.2661715756;0.000186820587604;0.003019543803035;197.138188200548;7.462670341094;0.000192780952406;-7.29772708666073E-06
0.370860927152318;13536.6008585416;0.000185483225319;0.003019318806757;196.030467740551;7.86810051663989;0.000191697715275;-7.69419626439419E-06
0.374172185430464;13535.8985682572;0.000184003519011;0.003019081314568;194.832485516887;8.32549983959474;0.000190526211387;-8.1414859443584E-06
0.377483443708609;13535.1579853565;0.000182384725443;0.003018830883155;193.545327784368;8.83194279376029;0.000189267502986;-8.63673527141377E-06
0.380794701986755;13534.3772705781;0.000180630767715;0.003018566892214;192.170172832365;9.38531162886083;0.00018792274232;-9.17787330274116E-06
0.384105960264901;13533.5554844612;0.000178744869017;0.003018289025879;190.708293849923;9.98472147459877;0.000186493174436;-9.76403472584039E-06
0.387417218543046;13532.6930153245;0.00017672913971;0.003017997417358;189.161053272441;10.6300997101441;0.000184980131657;-1.03951485249784E-05
0.390728476821192;13531.7911529826;0.000174584983132;0.00301769250471;187.5298945843;11.3214838818451;0.000183385025563;-1.10712514166373E-05
0.394039735099338;13530.8513784661;0.000172313774146;0.003017374790638;185.816336717585;12.0585574784173;0.000181709341513;-1.17920338852057E-05
0.397350993377483;13529.874894196;0.000169917307628;0.003017044683643;184.021972475934;12.840593491937;0.000179954637107;-1.2556784991412E-05
0.400662251655629;13528.8625659679;0.000167397852115;0.003016702478425;182.148469251803;13.6666515876471;0.000178122542883;-1.33645851841959E-05
0.403973509933775;13527.8151208395;0.000164757957699;0.003016348422796;180.197569593715;14.5357819430587;0.000176214762876;-1.42145056344673E-05
0.407284768211921;13526.7333515368;0.000162000257241;0.003015982786779;178.171090404948;15.4470991460315;0.00017423307383;-1.51056804998569E-05
0.410596026490066;13525.618189551;0.00015912739333;0.003015605887295;176.070921039083;16.3997426729154;0.00017217932334;-1.60372682763916E-05
0.413907284768212;13524.470663712;0.000156142055064;0.003015218074149;173.899021143598;17.3928107750105;0.000170055427741;-1.70083871462214E-05
0.417218543046358;13523.2918319186;0.000153047040595;0.003014819706939;171.657418794281;18.4253297111804;0.000167863370282;-1.80180848902697E-05
0.420529801324503;13522.0827485055;0.000149845285392;0.003014411144021;169.348208918459;19.4962628262898;0.000165605199589;-1.90653477660125E-05
0.423841059602649;13520.8444717447;0.000146539851823;0.003013992745038;166.973551744853;20.6045320086332;0.000163283028143;-2.01491214906488E-05
0.427152317880795;13519.5780837535;0.000143133906652;0.00301356487764;164.535671093449;21.7490290750842;0.000160899030612;-2.12683223746075E-05
0.43046357615894;13518.2847001685;0.000139630708238;0.003013127920742;162.036852498482;22.9286143498272;0.000158455442016;-2.2421835931694E-05
0.433774834437086;13516.9654668483;0.000136033606084;0.003012682263403;159.479441246504;24.142111355109;0.000155954555803;-2.36085116871879E-05
0.437086092715232;13515.6215526016;0.000132346044116;0.003012228302358;156.865840387268;25.388305003441;0.000153398721911;-2.48271614100066E-05
0.440397350993378;13514.2541453907;0.000128571560501;0.003011766440727;154.198508717701;26.6659439448745;0.000150790344791;-2.60765614080917E-05
0.443708609271523;13512.8644526626;0.000124713783382;0.003011297088121;151.479958713498;27.9737439480291;0.000148131881386;-2.73554558347148E-05
0.447019867549669;13511.4537026615;0.000120776425551;0.003010820661074;148.712754393112;29.3103899821206;0.000145425839045;-2.86625587244883E-05
